{
  "AcquisitionMatrixPE": 104,
  "AcquisitionNumber": 1,
  "AcquisitionTime": "18:04:4.237500",
  "BandwidthPerPixelPhaseEncode": 17.17,
  "BaseResolution": 104,
  "BodyPartExamined": "BRAIN",
  "ConsistencyInfo": "N4_VE11C_LATEST_20160120",
  "ConversionSoftware": "dcm2niix",
  "ConversionSoftwareVersion": "v1.0.20171215 (OpenJPEG build) GCC7.3.0",
  "DerivedVendorReportedEchoSpacing": 0.000560011,
  "DeviceSerialNumber": "167006",
  "DwellTime": 2.1e-06,
  "EchoTime": 0.037,
  "EchoTrainLength": 104,
  "EffectiveEchoSpacing": 0.000560011,
  "FlipAngle": 52,
  "ImageComments": "Unaliased_MB4_PE3_LB",
  "ImageOrientationPatientDICOM": [0.999458, -0.0304538, -0.0124922, 0.0232045, 0.92103, -0.3888],
  "ImageType": [
    "ORIGINAL",
    "PRIMARY",
    "M",
    "MB",
    "ND",
    "MOSAIC"
],
  "InPlanePhaseEncodingDirectionDICOM": "COL",
  "InstitutionAddress": "Chemin_Queen-Mary_4565_Montreal_District_CA_H3W_1W5",
  "InstitutionName": "IUGM",
  "InstitutionalDepartmentName": "Department",
  "MRAcquisitionType": "2D",
  "MagneticFieldStrength": 3,
  "Manufacturer": "Siemens",
  "ManufacturersModelName": "Prisma_fit",
  "Modality": "MR",
  "MultibandAccelerationFactor": 4,
  "PartialFourier": 1,
  "PatientPosition": "HFS",
  "PercentPhaseFOV": 100,
  "PhaseEncodingDirection": "j",
  "PhaseEncodingSteps": 104,
  "PhaseResolution": 1,
  "PixelBandwidth": 2290,
  "ProcedureStepDescription": "video5_generic",
  "ProtocolName": "func_task-bourne1",
  "PulseSequenceDetails": "%CustomerSeq%_cmrr_mbep2d_bold",
  "ReceiveCoilActiveElements": "HC1-7;NC1,2",
  "ReceiveCoilName": "HeadNeck_64",
  "ReconMatrixPE": 104,
  "RepetitionTime": 1.49,
  "SAR": 0.0345883,
  "ScanOptions": "FS",
  "ScanningSequence": "EP",
  "SequenceName": "epfid2d1_104",
  "SequenceVariant": "SK_SS",
  "SeriesDescription": "func_task-bourne1",
  "SeriesNumber": 7,
  "ShimSetting": [614, -7248, -8862, 443, -8, -403, 1, 41],
  "SliceThickness": 2,
  "SliceTiming": [0, 0.785, 0.1, 0.8825, 0.1975, 0.98, 0.295, 1.08, 0.3925, 1.1775, 0.49, 1.275, 0.59, 1.3725, 0.6875, 0, 0.785, 0.1, 0.8825, 0.1975, 0.98, 0.295, 1.08, 0.3925, 1.1775, 0.49, 1.275, 0.59, 1.3725, 0.6875, 0, 0.785, 0.1, 0.8825, 0.1975, 0.98, 0.295, 1.08, 0.3925, 1.1775, 0.49, 1.275, 0.59, 1.3725, 0.6875, 0, 0.785, 0.1, 0.8825, 0.1975, 0.98, 0.295, 1.08, 0.3925, 1.1775, 0.49, 1.275, 0.59, 1.3725, 0.6875],
  "SoftwareVersions": "syngo_MR_E11",
  "SpacingBetweenSlices": 2,
  "StationName": "MRC35049",
  "TaskName": "bourne01",
  "TotalReadoutTime": 0.0576811,
  "TxRefAmp": 236.023,
  "dcmmeta_affine": [
    [-1.9989162683486938, 0.04640897735953331, -0.04669218137860298, 98.21805572509766],
    [0.06090760603547096, 1.8420599699020386, -0.7765985727310181, -72.33643341064453],
    [-0.02498432621359825, 0.7775996923446655, 1.8424750566482544, -80.73576354980469],
    [0.0, 0.0, 0.0, 1.0]
],
  "dcmmeta_reorient_transform": [
    [0.0, -1.0, 0.0, 103.0],
    [1.0, 0.0, 0.0, 0.0],
    [0.0, 0.0, 1.0, 0.0],
    [0.0, 0.0, 0.0, 1.0]
],
  "dcmmeta_shape": [104, 104, 60, 291],
  "dcmmeta_slice_dim": 2,
  "dcmmeta_version": 0.6,
  "global": {
    "const": {
      "AcquisitionMatrix": [104, 0, 0, 104],
      "AngioFlag": "N",
      "BitsAllocated": 16,
      "BitsStored": 16,
      "BodyPartExamined": "BRAIN",
      "Columns": 832,
      "EchoNumbers": 1,
      "EchoTime": 37.0,
      "EchoTrainLength": 104,
      "FlipAngle": 52.0,
      "HighBit": 15,
      "ImageOrientationPatient": [0.99945810904582, -0.0304538029199, -0.0124921635545, 0.02320448892743, 0.92102998858386, -0.3887998351631],
      "ImagePositionPatient": [-847.496551436, -765.73520815825, 291.49757782073],
      "ImageType": [
        "ORIGINAL",
        "PRIMARY",
        "M",
        "MB",
        "ND",
        "MOSAIC"
],
      "ImagedNucleus": "1H",
      "ImagingFrequency": 123.259405,
      "InPlanePhaseEncodingDirection": "COL",
      "MRAcquisitionType": "2D",
      "MagneticFieldStrength": 3.0,
      "Manufacturer": "SIEMENS",
      "ManufacturerModelName": "Prisma_fit",
      "Modality": "MR",
      "NumberOfAverages": 1.0,
      "NumberOfPhaseEncodingSteps": 104,
      "PercentPhaseFieldOfView": 100.0,
      "PercentSampling": 100.0,
      "PerformedProcedureStepStartTime": "174525.589000",
      "PhotometricInterpretation": "MONOCHROME2",
      "PixelBandwidth": 2290.0,
      "PixelRepresentation": 0,
      "PixelSpacing": [2.0, 2.0],
      "ProtocolName": "func_task-bourne1",
      "RepetitionTime": 1490.0,
      "Rows": 832,
      "SAR": 0.03458827765539,
      "SamplesPerPixel": 1,
      "ScanOptions": "FS",
      "ScanningSequence": "EP",
      "SequenceName": "epfid2d1_104",
      "SequenceVariant": [
        "SK",
        "SS"
],
      "SeriesDescription": "func_task-bourne1",
      "SeriesNumber": 7,
      "SeriesTime": "180526.184000",
      "SliceLocation": -48.581640603399,
      "SliceThickness": 2.0,
      "SmallestImagePixelValue": 0,
      "SoftwareVersions": "syngo MR E11",
      "SpacingBetweenSlices": 1.9999999950825,
      "SpecificCharacterSet": "ISO_IR 100",
      "StudyID": "1",
      "StudyTime": "174525.524000",
      "TransmitCoilName": "Body",
      "VariableFlipAngleFlag": "N",
      "WindowCenterWidthExplanation": "Algo1",
      "dBdt": 0.0},
    "slices": {}
  },
  "time": {
    "samples": {
      "AcquisitionNumber": [1, 2, 3, 4, 5, 6, 7, 8, 9, 10, 11, 12, 13, 14, 15, 16, 17, 18, 19, 20, 21, 22, 23, 24, 25, 26, 27, 28, 29, 30, 31, 32, 33, 34, 35, 36, 37, 38, 39, 40, 41, 42, 43, 44, 45, 46, 47, 48, 49, 50, 51, 52, 53, 54, 55, 56, 57, 58, 59, 60, 61, 62, 63, 64, 65, 66, 67, 68, 69, 70, 71, 72, 73, 74, 75, 76, 77, 78, 79, 80, 81, 82, 83, 84, 85, 86, 87, 88, 89, 90, 91, 92, 93, 94, 95, 96, 97, 98, 99, 100, 101, 102, 103, 104, 105, 106, 107, 108, 109, 110, 111, 112, 113, 114, 115, 116, 117, 118, 119, 120, 121, 122, 123, 124, 125, 126, 127, 128, 129, 130, 131, 132, 133, 134, 135, 136, 137, 138, 139, 140, 141, 142, 143, 144, 145, 146, 147, 148, 149, 150, 151, 152, 153, 154, 155, 156, 157, 158, 159, 160, 161, 162, 163, 164, 165, 166, 167, 168, 169, 170, 171, 172, 173, 174, 175, 176, 177, 178, 179, 180, 181, 182, 183, 184, 185, 186, 187, 188, 189, 190, 191, 192, 193, 194, 195, 196, 197, 198, 199, 200, 201, 202, 203, 204, 205, 206, 207, 208, 209, 210, 211, 212, 213, 214, 215, 216, 217, 218, 219, 220, 221, 222, 223, 224, 225, 226, 227, 228, 229, 230, 231, 232, 233, 234, 235, 236, 237, 238, 239, 240, 241, 242, 243, 244, 245, 246, 247, 248, 249, 250, 251, 252, 253, 254, 255, 256, 257, 258, 259, 260, 261, 262, 263, 264, 265, 266, 267, 268, 269, 270, 271, 272, 273, 274, 275, 276, 277, 278, 279, 280, 281, 282, 283, 284, 285, 286, 287, 288, 289, 290, 291],
      "AcquisitionTime": ["180404.237500", "180405.727500", "180407.217500", "180408.707500", "180410.197500", "180411.687500", "180413.177500", "180414.667500", "180416.157500", "180417.647500", "180419.137500", "180420.627500", "180422.117500", "180423.607500", "180425.097500", "180426.587500", "180428.077500", "180429.567500", "180431.057500", "180432.547500", "180434.037500", "180435.527500", "180437.017500", "180438.507500", "180439.997500", "180441.487500", "180442.977500", "180444.467500", "180445.957500", "180447.447500", "180448.937500", "180450.427500", "180451.917500", "180453.407500", "180454.897500", "180456.387500", "180457.877500", "180459.367500", "180500.857500", "180502.347500", "180503.837500", "180505.327500", "180506.817500", "180508.307500", "180509.797500", "180511.287500", "180512.777500", "180514.267500", "180515.757500", "180517.247500", "180518.737500", "180520.227500", "180521.717500", "180523.207500", "180524.697500", "180526.187500", "180527.677500", "180529.167500", "180530.657500", "180532.147500", "180533.637500", "180535.127500", "180536.617500", "180538.107500", "180539.597500", "180541.087500", "180542.577500", "180544.067500", "180545.557500", "180547.047500", "180548.537500", "180550.027500", "180551.517500", "180553.007500", "180554.497500", "180555.987500", "180557.477500", "180558.967500", "180600.457500", "180601.947500", "180603.437500", "180604.927500", "180606.417500", "180607.907500", "180609.397500", "180610.887500", "180612.377500", "180613.867500", "180615.357500", "180616.847500", "180618.337500", "180619.827500", "180621.317500", "180622.807500", "180624.297500", "180625.787500", "180627.277500", "180628.767500", "180630.257500", "180631.747500", "180633.237500", "180634.727500", "180636.217500", "180637.707500", "180639.197500", "180640.687500", "180642.177500", "180643.667500", "180645.157500", "180646.647500", "180648.137500", "180649.627500", "180651.117500", "180652.607500", "180654.097500", "180655.587500", "180657.077500", "180658.567500", "180700.057500", "180701.547500", "180703.037500", "180704.527500", "180706.017500", "180707.507500", "180708.997500", "180710.487500", "180711.977500", "180713.467500", "180714.957500", "180716.447500", "180717.937500", "180719.427500", "180720.917500", "180722.407500", "180723.897500", "180725.387500", "180726.877500", "180728.367500", "180729.857500", "180731.347500", "180732.837500", "180734.327500", "180735.817500", "180737.307500", "180738.797500", "180740.287500", "180741.777500", "180743.267500", "180744.757500", "180746.247500", "180747.737500", "180749.227500", "180750.717500", "180752.207500", "180753.697500", "180755.187500", "180756.677500", "180758.167500", "180759.657500", "180801.147500", "180802.637500", "180804.127500", "180805.617500", "180807.107500", "180808.597500", "180810.087500", "180811.577500", "180813.067500", "180814.557500", "180816.047500", "180817.537500", "180819.027500", "180820.517500", "180822.007500", "180823.497500", "180824.987500", "180826.477500", "180827.967500", "180829.457500", "180830.947500", "180832.437500", "180833.927500", "180835.417500", "180836.907500", "180838.397500", "180839.887500", "180841.377500", "180842.867500", "180844.357500", "180845.847500", "180847.337500", "180848.827500", "180850.317500", "180851.807500", "180853.297500", "180854.787500", "180856.277500", "180857.767500", "180859.257500", "180900.747500", "180902.237500", "180903.727500", "180905.217500", "180906.707500", "180908.197500", "180909.687500", "180911.177500", "180912.667500", "180914.157500", "180915.647500", "180917.137500", "180918.627500", "180920.117500", "180921.607500", "180923.097500", "180924.587500", "180926.077500", "180927.567500", "180929.057500", "180930.547500", "180932.037500", "180933.527500", "180935.017500", "180936.507500", "180937.997500", "180939.487500", "180940.977500", "180942.467500", "180943.957500", "180945.447500", "180946.937500", "180948.427500", "180949.917500", "180951.407500", "180952.897500", "180954.387500", "180955.877500", "180957.367500", "180958.857500", "181000.347500", "181001.837500", "181003.327500", "181004.817500", "181006.307500", "181007.797500", "181009.287500", "181010.777500", "181012.267500", "181013.757500", "181015.247500", "181016.737500", "181018.227500", "181019.717500", "181021.207500", "181022.697500", "181024.187500", "181025.677500", "181027.167500", "181028.657500", "181030.147500", "181031.637500", "181033.127500", "181034.617500", "181036.107500", "181037.597500", "181039.087500", "181040.577500", "181042.067500", "181043.557500", "181045.047500", "181046.537500", "181048.027500", "181049.517500", "181051.007500", "181052.497500", "181053.987500", "181055.477500", "181056.967500", "181058.457500", "181059.947500", "181101.437500", "181102.927500", "181104.417500", "181105.907500", "181107.397500", "181108.887500", "181110.377500", "181111.867500", "181113.357500", "181114.847500", "181116.337500"],
      "ContentTime": ["180526.187000", "180526.191000", "180526.193000", "180526.196000", "180526.199000", "180526.212000", "180526.215000", "180526.218000", "180526.221000", "180526.223000", "180526.226000", "180526.238000", "180526.241000", "180526.244000", "180526.246000", "180526.249000", "180526.252000", "180526.255000", "180526.258000", "180526.261000", "180526.264000", "180526.267000", "180526.270000", "180526.273000", "180526.275000", "180526.278000", "180526.281000", "180546.157000", "180546.160000", "180546.163000", "180546.166000", "180546.169000", "180546.172000", "180546.175000", "180546.178000", "180546.180000", "180546.183000", "180546.186000", "180546.189000", "180546.202000", "180546.204000", "180546.207000", "180546.210000", "180546.213000", "180546.216000", "180546.219000", "180546.222000", "180606.157000", "180606.160000", "180606.163000", "180606.167000", "180606.170000", "180606.182000", "180606.185000", "180606.188000", "180606.191000", "180606.194000", "180606.197000", "180606.200000", "180606.203000", "180606.205000", "180606.208000", "180606.211000", "180606.214000", "180606.217000", "180606.220000", "180606.223000", "180626.157000", "180626.160000", "180626.163000", "180626.166000", "180626.169000", "180626.172000", "180626.175000", "180626.178000", "180626.181000", "180626.184000", "180626.187000", "180626.190000", "180626.193000", "180626.203000", "180626.206000", "180626.208000", "180626.211000", "180626.214000", "180626.217000", "180626.220000", "180626.223000", "180646.158000", "180646.161000", "180646.164000", "180646.167000", "180646.170000", "180646.173000", "180646.176000", "180646.179000", "180646.182000", "180646.185000", "180646.188000", "180646.196000", "180646.199000", "180646.202000", "180646.205000", "180646.208000", "180646.211000", "180646.213000", "180646.216000", "180646.219000", "180726.158000", "180726.161000", "180726.164000", "180726.167000", "180726.170000", "180726.173000", "180726.176000", "180726.179000", "180726.182000", "180726.184000", "180726.187000", "180726.190000", "180726.193000", "180726.196000", "180726.199000", "180726.202000", "180726.205000", "180726.209000", "180726.212000", "180726.214000", "180726.217000", "180726.220000", "180726.223000", "180726.226000", "180726.229000", "180726.232000", "180806.157000", "180806.160000", "180806.163000", "180806.166000", "180806.168000", "180806.171000", "180806.174000", "180806.177000", "180806.180000", "180806.183000", "180806.186000", "180806.189000", "180806.191000", "180806.194000", "180806.197000", "180806.200000", "180806.203000", "180806.206000", "180806.208000", "180806.211000", "180806.214000", "180806.217000", "180806.220000", "180806.223000", "180806.226000", "180806.229000", "180806.231000", "180846.157000", "180846.160000", "180846.163000", "180846.166000", "180846.169000", "180846.172000", "180846.174000", "180846.177000", "180846.180000", "180846.183000", "180846.186000", "180846.189000", "180846.192000", "180846.194000", "180846.197000", "180846.200000", "180846.203000", "180846.206000", "180846.209000", "180846.212000", "180846.214000", "180846.217000", "180846.220000", "180846.223000", "180846.226000", "180846.229000", "180846.232000", "180926.158000", "180926.161000", "180926.164000", "180926.167000", "180926.170000", "180926.172000", "180926.175000", "180926.178000", "180926.181000", "180926.184000", "180926.187000", "180926.190000", "180926.193000", "180926.195000", "180926.198000", "180926.201000", "180926.204000", "180926.207000", "180926.210000", "180926.213000", "180926.215000", "180926.218000", "180926.221000", "180926.224000", "180926.227000", "180926.230000", "180926.233000", "181006.158000", "181006.161000", "181006.164000", "181006.167000", "181006.170000", "181006.173000", "181006.199000", "181006.202000", "181006.205000", "181006.207000", "181006.210000", "181006.213000", "181006.216000", "181006.219000", "181006.222000", "181006.224000", "181006.227000", "181006.230000", "181006.233000", "181006.236000", "181006.239000", "181006.242000", "181006.245000", "181006.247000", "181006.250000", "181006.253000", "181006.256000", "181046.157000", "181046.160000", "181046.163000", "181046.183000", "181046.186000", "181046.189000", "181046.192000", "181046.195000", "181046.198000", "181046.201000", "181046.203000", "181046.206000", "181046.209000", "181046.212000", "181046.215000", "181046.218000", "181046.221000", "181046.223000", "181046.226000", "181046.229000", "181046.232000", "181046.235000", "181046.238000", "181046.241000", "181046.244000", "181046.247000", "181046.249000", "181119.021000", "181119.024000", "181119.027000", "181119.030000", "181119.033000", "181119.036000", "181119.039000", "181119.042000", "181119.044000", "181119.047000", "181119.050000", "181119.053000", "181119.056000", "181119.059000", "181119.062000", "181119.064000", "181119.067000", "181119.070000", "181119.073000", "181119.076000", "181119.079000", "181119.082000"],
      "InstanceCreationTime": ["180526.187000", "180526.191000", "180526.193000", "180526.196000", "180526.199000", "180526.212000", "180526.215000", "180526.218000", "180526.221000", "180526.223000", "180526.226000", "180526.238000", "180526.241000", "180526.244000", "180526.246000", "180526.249000", "180526.252000", "180526.255000", "180526.258000", "180526.261000", "180526.264000", "180526.267000", "180526.270000", "180526.273000", "180526.275000", "180526.278000", "180526.281000", "180546.157000", "180546.160000", "180546.163000", "180546.166000", "180546.169000", "180546.172000", "180546.175000", "180546.178000", "180546.180000", "180546.183000", "180546.186000", "180546.189000", "180546.202000", "180546.204000", "180546.207000", "180546.210000", "180546.213000", "180546.216000", "180546.219000", "180546.222000", "180606.157000", "180606.160000", "180606.163000", "180606.167000", "180606.170000", "180606.182000", "180606.185000", "180606.188000", "180606.191000", "180606.194000", "180606.197000", "180606.200000", "180606.203000", "180606.205000", "180606.208000", "180606.211000", "180606.214000", "180606.217000", "180606.220000", "180606.223000", "180626.157000", "180626.160000", "180626.163000", "180626.166000", "180626.169000", "180626.172000", "180626.175000", "180626.178000", "180626.181000", "180626.184000", "180626.187000", "180626.190000", "180626.193000", "180626.203000", "180626.206000", "180626.208000", "180626.211000", "180626.214000", "180626.217000", "180626.220000", "180626.223000", "180646.158000", "180646.161000", "180646.164000", "180646.167000", "180646.170000", "180646.173000", "180646.176000", "180646.179000", "180646.182000", "180646.185000", "180646.188000", "180646.196000", "180646.199000", "180646.202000", "180646.205000", "180646.208000", "180646.211000", "180646.213000", "180646.216000", "180646.219000", "180726.158000", "180726.161000", "180726.164000", "180726.167000", "180726.170000", "180726.173000", "180726.176000", "180726.179000", "180726.182000", "180726.184000", "180726.187000", "180726.190000", "180726.193000", "180726.196000", "180726.199000", "180726.202000", "180726.205000", "180726.209000", "180726.212000", "180726.214000", "180726.217000", "180726.220000", "180726.223000", "180726.226000", "180726.229000", "180726.232000", "180806.157000", "180806.160000", "180806.163000", "180806.166000", "180806.168000", "180806.171000", "180806.174000", "180806.177000", "180806.180000", "180806.183000", "180806.186000", "180806.189000", "180806.191000", "180806.194000", "180806.197000", "180806.200000", "180806.203000", "180806.206000", "180806.208000", "180806.211000", "180806.214000", "180806.217000", "180806.220000", "180806.223000", "180806.226000", "180806.229000", "180806.231000", "180846.157000", "180846.160000", "180846.163000", "180846.166000", "180846.169000", "180846.172000", "180846.174000", "180846.177000", "180846.180000", "180846.183000", "180846.186000", "180846.189000", "180846.192000", "180846.194000", "180846.197000", "180846.200000", "180846.203000", "180846.206000", "180846.209000", "180846.212000", "180846.214000", "180846.217000", "180846.220000", "180846.223000", "180846.226000", "180846.229000", "180846.232000", "180926.158000", "180926.161000", "180926.164000", "180926.167000", "180926.170000", "180926.172000", "180926.175000", "180926.178000", "180926.181000", "180926.184000", "180926.187000", "180926.190000", "180926.193000", "180926.195000", "180926.198000", "180926.201000", "180926.204000", "180926.207000", "180926.210000", "180926.213000", "180926.215000", "180926.218000", "180926.221000", "180926.224000", "180926.227000", "180926.230000", "180926.233000", "181006.158000", "181006.161000", "181006.164000", "181006.167000", "181006.170000", "181006.173000", "181006.199000", "181006.202000", "181006.205000", "181006.207000", "181006.210000", "181006.213000", "181006.216000", "181006.219000", "181006.222000", "181006.224000", "181006.227000", "181006.230000", "181006.233000", "181006.236000", "181006.239000", "181006.242000", "181006.245000", "181006.247000", "181006.250000", "181006.253000", "181006.256000", "181046.157000", "181046.160000", "181046.163000", "181046.183000", "181046.186000", "181046.189000", "181046.192000", "181046.195000", "181046.198000", "181046.201000", "181046.203000", "181046.206000", "181046.209000", "181046.212000", "181046.215000", "181046.218000", "181046.221000", "181046.223000", "181046.226000", "181046.229000", "181046.232000", "181046.235000", "181046.238000", "181046.241000", "181046.244000", "181046.247000", "181046.249000", "181119.021000", "181119.024000", "181119.027000", "181119.030000", "181119.033000", "181119.036000", "181119.039000", "181119.042000", "181119.044000", "181119.047000", "181119.050000", "181119.053000", "181119.056000", "181119.059000", "181119.062000", "181119.064000", "181119.067000", "181119.070000", "181119.073000", "181119.076000", "181119.079000", "181119.082000"],
      "InstanceNumber": [1, 2, 3, 4, 5, 6, 7, 8, 9, 10, 11, 12, 13, 14, 15, 16, 17, 18, 19, 20, 21, 22, 23, 24, 25, 26, 27, 28, 29, 30, 31, 32, 33, 34, 35, 36, 37, 38, 39, 40, 41, 42, 43, 44, 45, 46, 47, 48, 49, 50, 51, 52, 53, 54, 55, 56, 57, 58, 59, 60, 61, 62, 63, 64, 65, 66, 67, 68, 69, 70, 71, 72, 73, 74, 75, 76, 77, 78, 79, 80, 81, 82, 83, 84, 85, 86, 87, 88, 89, 90, 91, 92, 93, 94, 95, 96, 97, 98, 99, 100, 101, 102, 103, 104, 105, 106, 107, 108, 109, 110, 111, 112, 113, 114, 115, 116, 117, 118, 119, 120, 121, 122, 123, 124, 125, 126, 127, 128, 129, 130, 131, 132, 133, 134, 135, 136, 137, 138, 139, 140, 141, 142, 143, 144, 145, 146, 147, 148, 149, 150, 151, 152, 153, 154, 155, 156, 157, 158, 159, 160, 161, 162, 163, 164, 165, 166, 167, 168, 169, 170, 171, 172, 173, 174, 175, 176, 177, 178, 179, 180, 181, 182, 183, 184, 185, 186, 187, 188, 189, 190, 191, 192, 193, 194, 195, 196, 197, 198, 199, 200, 201, 202, 203, 204, 205, 206, 207, 208, 209, 210, 211, 212, 213, 214, 215, 216, 217, 218, 219, 220, 221, 222, 223, 224, 225, 226, 227, 228, 229, 230, 231, 232, 233, 234, 235, 236, 237, 238, 239, 240, 241, 242, 243, 244, 245, 246, 247, 248, 249, 250, 251, 252, 253, 254, 255, 256, 257, 258, 259, 260, 261, 262, 263, 264, 265, 266, 267, 268, 269, 270, 271, 272, 273, 274, 275, 276, 277, 278, 279, 280, 281, 282, 283, 284, 285, 286, 287, 288, 289, 290, 291],
      "LargestImagePixelValue": [61087, 59092, 58006, 57943, 57981, 57178, 56915, 56804, 56721, 57300, 56738, 57862, 56616, 57240, 56989, 57433, 57089, 57052, 57143, 56579, 57022, 57976, 57072, 57548, 56628, 57783, 56719, 56583, 57203, 57147, 56819, 56302, 57793, 57777, 57189, 57301, 57022, 56589, 56135, 55867, 56624, 57703, 56917, 57398, 57651, 57742, 57722, 57664, 56429, 56983, 57018, 57760, 57518, 57744, 57392, 57083, 56917, 57682, 57162, 57551, 56345, 56620, 56818, 56710, 57026, 56876, 56919, 56912, 56434, 56971, 56539, 56920, 56230, 57395, 56919, 56668, 56640, 56802, 56885, 56598, 56635, 56666, 55717, 56983, 57113, 56348, 57031, 58221, 57281, 56810, 56690, 55944, 55911, 56651, 56350, 56058, 56186, 56475, 56609, 56266, 57298, 58192, 57668, 57221, 56929, 56124, 56242, 56291, 55776, 56124, 56461, 55575, 56630, 56485, 56554, 56047, 56016, 56336, 55814, 56311, 56342, 56848, 56417, 56860, 56290, 56074, 55957, 55924, 55566, 56627, 55830, 55974, 57051, 56934, 56426, 56685, 55599, 56077, 57057, 56685, 56314, 56367, 56174, 57034, 56726, 56313, 55903, 56140, 56164, 55981, 55704, 56576, 57509, 56204, 55170, 56696, 58168, 57562, 56795, 56143, 56215, 55628, 55045, 55866, 55025, 55684, 57708, 58459, 57541, 56715, 56196, 55756, 54864, 55304, 55230, 55219, 55740, 56571, 57149, 56522, 55523, 55244, 54632, 55198, 55541, 54781, 56008, 58193, 55869, 57599, 58213, 57626, 56954, 56387, 55583, 54869, 55524, 54223, 55133, 56833, 56828, 57504, 57032, 56403, 55692, 55535, 56005, 55548, 55703, 56645, 56515, 56796, 57174, 56564, 56167, 56471, 56587, 56582, 56448, 56395, 56211, 57114, 56889, 56217, 56554, 57643, 57753, 57277, 56899, 56820, 56031, 55091, 55311, 55229, 56127, 56657, 56424, 56219, 57236, 58269, 58381, 57386, 56784, 56114, 55372, 54802, 55289, 55992, 56191, 56832, 55571, 57409, 57951, 57210, 56347, 55602, 55266, 56022, 55765, 55554, 57613, 58250, 58101, 57291, 56939, 56909, 57843, 57712, 57511, 57256, 57489, 57980, 57170, 56973, 56604, 56317, 56394, 56164, 57062, 58031, 57298, 57359, 58040, 57161, 57240, 56454, 56656, 55795, 55673, 56077, 56460],
      "WindowCenter": [10521.0, 10461.0, 10439.0, 10452.0, 10461.0, 10465.0, 10464.0, 10465.0, 10465.0, 10480.0, 10473.0, 10484.0, 10474.0, 10479.0, 10474.0, 10478.0, 10465.0, 10457.0, 10446.0, 10445.0, 10445.0, 10453.0, 10444.0, 10452.0, 10444.0, 10452.0, 10456.0, 10453.0, 10438.0, 10428.0, 10425.0, 10415.0, 10442.0, 10478.0, 10479.0, 10456.0, 10423.0, 10388.0, 10362.0, 10358.0, 10386.0, 10425.0, 10434.0, 10418.0, 10413.0, 10405.0, 10400.0, 10416.0, 10445.0, 10457.0, 10454.0, 10447.0, 10440.0, 10439.0, 10427.0, 10427.0, 10431.0, 10436.0, 10426.0, 10420.0, 10409.0, 10422.0, 10437.0, 10458.0, 10467.0, 10469.0, 10459.0, 10449.0, 10437.0, 10455.0, 10459.0, 10466.0, 10468.0, 10474.0, 10469.0, 10459.0, 10444.0, 10430.0, 10443.0, 10427.0, 10420.0, 10419.0, 10390.0, 10389.0, 10398.0, 10415.0, 10427.0, 10450.0, 10431.0, 10416.0, 10408.0, 10401.0, 10407.0, 10407.0, 10402.0, 10409.0, 10422.0, 10406.0, 10406.0, 10389.0, 10392.0, 10436.0, 10460.0, 10455.0, 10427.0, 10390.0, 10364.0, 10361.0, 10340.0, 10334.0, 10326.0, 10329.0, 10336.0, 10363.0, 10398.0, 10413.0, 10407.0, 10397.0, 10396.0, 10409.0, 10432.0, 10450.0, 10461.0, 10467.0, 10453.0, 10440.0, 10421.0, 10404.0, 10395.0, 10408.0, 10404.0, 10393.0, 10382.0, 10373.0, 10365.0, 10372.0, 10367.0, 10380.0, 10415.0, 10417.0, 10396.0, 10379.0, 10374.0, 10393.0, 10402.0, 10400.0, 10386.0, 10375.0, 10373.0, 10356.0, 10357.0, 10378.0, 10401.0, 10388.0, 10358.0, 10368.0, 10377.0, 10381.0, 10380.0, 10380.0, 10378.0, 10352.0, 10327.0, 10348.0, 10326.0, 10307.0, 10312.0, 10328.0, 10339.0, 10340.0, 10352.0, 10348.0, 10331.0, 10321.0, 10313.0, 10319.0, 10317.0, 10328.0, 10355.0, 10361.0, 10342.0, 10310.0, 10295.0, 10293.0, 10288.0, 10283.0, 10292.0, 10314.0, 10305.0, 10319.0, 10353.0, 10368.0, 10363.0, 10352.0, 10345.0, 10321.0, 10306.0, 10304.0, 10306.0, 10341.0, 10336.0, 10343.0, 10330.0, 10321.0, 10308.0, 10312.0, 10314.0, 10288.0, 10295.0, 10324.0, 10334.0, 10338.0, 10352.0, 10359.0, 10364.0, 10355.0, 10369.0, 10383.0, 10387.0, 10365.0, 10349.0, 10342.0, 10346.0, 10335.0, 10333.0, 10342.0, 10368.0, 10364.0, 10340.0, 10306.0, 10285.0, 10266.0, 10279.0, 10286.0, 10310.0, 10320.0, 10319.0, 10311.0, 10316.0, 10343.0, 10344.0, 10341.0, 10342.0, 10324.0, 10290.0, 10253.0, 10235.0, 10221.0, 10218.0, 10222.0, 10222.0, 10250.0, 10290.0, 10326.0, 10334.0, 10325.0, 10311.0, 10313.0, 10306.0, 10312.0, 10349.0, 10384.0, 10399.0, 10383.0, 10332.0, 10327.0, 10322.0, 10315.0, 10299.0, 10282.0, 10279.0, 10280.0, 10294.0, 10297.0, 10289.0, 10276.0, 10273.0, 10272.0, 10298.0, 10347.0, 10373.0, 10362.0, 10334.0, 10321.0, 10306.0, 10285.0, 10292.0, 10289.0, 10297.0, 10320.0, 10335.0],
